date_matlab year month day hour min seg Solar_Zenith_angle(º) Total_Column_O3total(E18mole/cm-2) 
736574.393540 2016.000000 9.000000 1.000000 9.000000 26.000000 41.856003 55.307999 8.126500 
736574.411520 2016.000000 9.000000 1.000000 9.000000 52.000000 35.328003 49.744999 8.150500 
736574.429470 2016.000000 9.000000 1.000000 10.000000 18.000000 26.208000 44.293999 8.151200 
736574.447450 2016.000000 9.000000 1.000000 10.000000 44.000000 19.680000 38.997002 8.165200 
736574.618080 2016.000000 9.000000 1.000000 14.000000 50.000000 2.112000 31.896999 8.238900 
736579.387430 2016.000000 9.000000 6.000000 9.000000 17.000000 53.952003 57.757000 7.760000 
736579.422120 2016.000000 9.000000 6.000000 10.000000 7.000000 51.167999 47.155998 7.751500 
736579.440010 2016.000000 9.000000 6.000000 10.000000 33.000000 36.863998 41.900002 7.745100 
736579.458000 2016.000000 9.000000 6.000000 10.000000 59.000000 31.199997 36.856998 7.745400 
736579.475900 2016.000000 9.000000 6.000000 11.000000 25.000000 17.760002 32.198002 7.769200 
736579.507070 2016.000000 9.000000 6.000000 12.000000 10.000000 10.848000 25.556999 7.809300 
736579.545250 2016.000000 9.000000 6.000000 13.000000 5.000000 9.599998 22.150000 7.813900 
736582.466820 2016.000000 9.000000 9.000000 11.000000 12.000000 13.248001 35.103001 7.561200 
736582.484790 2016.000000 9.000000 9.000000 11.000000 38.000000 5.856003 30.783001 7.563300 
736582.502620 2016.000000 9.000000 9.000000 12.000000 3.000000 46.367996 27.191999 7.569200 
736582.520600 2016.000000 9.000000 9.000000 12.000000 29.000000 39.839996 24.584000 7.571300 
736586.406490 2016.000000 9.000000 13.000000 9.000000 45.000000 20.736000 52.785000 7.894200 
736586.424460 2016.000000 9.000000 13.000000 10.000000 11.000000 13.344002 47.474998 7.880600 
736586.460240 2016.000000 9.000000 13.000000 11.000000 2.000000 44.736000 37.603001 7.866600 
736586.478140 2016.000000 9.000000 13.000000 11.000000 28.000000 31.295998 33.248001 7.862500 
736586.496100 2016.000000 9.000000 13.000000 11.000000 54.000000 23.040001 29.510000 7.875200 
736586.514200 2016.000000 9.000000 13.000000 12.000000 20.000000 26.879997 26.662001 7.873300 
736586.532230 2016.000000 9.000000 13.000000 12.000000 46.000000 24.671997 25.061001 7.908400 
736587.406850 2016.000000 9.000000 14.000000 9.000000 45.000000 51.839996 52.814999 7.899900 
736587.424760 2016.000000 9.000000 14.000000 10.000000 11.000000 39.264000 47.542000 7.881100 
736587.442740 2016.000000 9.000000 14.000000 10.000000 37.000000 32.736000 42.459000 7.882900 
736587.460730 2016.000000 9.000000 14.000000 11.000000 3.000000 27.071999 37.685001 7.895800 
736587.478700 2016.000000 9.000000 14.000000 11.000000 29.000000 19.680000 33.361000 7.885500 
736587.496610 2016.000000 9.000000 14.000000 11.000000 55.000000 7.103996 29.700001 7.874900 
736587.514510 2016.000000 9.000000 14.000000 12.000000 20.000000 53.664001 26.952999 7.879400 
736587.532420 2016.000000 9.000000 14.000000 12.000000 46.000000 41.087997 25.421000 7.877700 
736587.551270 2016.000000 9.000000 14.000000 13.000000 13.000000 49.727997 25.363001 7.896200 
736587.585010 2016.000000 9.000000 14.000000 14.000000 2.000000 24.863998 29.101999 7.914900 
736587.691380 2016.000000 9.000000 14.000000 16.000000 35.000000 35.232002 56.817001 7.986500 
736587.727250 2016.000000 9.000000 14.000000 17.000000 27.000000 14.400002 67.922997 7.960300 
736587.745140 2016.000000 9.000000 14.000000 17.000000 53.000000 0.096001 73.555000 7.963900 
736587.763100 2016.000000 9.000000 14.000000 18.000000 18.000000 51.839996 79.238998 7.963700 
736588.400140 2016.000000 9.000000 15.000000 9.000000 36.000000 12.096001 54.966999 7.898200 
736588.418120 2016.000000 9.000000 15.000000 10.000000 2.000000 5.568001 49.625000 7.892700 
736588.436020 2016.000000 9.000000 15.000000 10.000000 27.000000 52.127998 44.500999 7.902300 
736588.453920 2016.000000 9.000000 15.000000 10.000000 53.000000 38.688004 39.645000 7.852900 
736588.471850 2016.000000 9.000000 15.000000 11.000000 19.000000 27.839996 35.176998 7.856500 
736588.489900 2016.000000 9.000000 15.000000 11.000000 45.000000 27.360001 31.253000 7.858000 
736588.507940 2016.000000 9.000000 15.000000 12.000000 11.000000 26.015999 28.152000 7.864000 
736588.648160 2016.000000 9.000000 15.000000 15.000000 33.000000 21.024002 44.412998 7.807500 
736588.691130 2016.000000 9.000000 15.000000 16.000000 35.000000 13.632004 57.023998 7.824600 
736588.718610 2016.000000 9.000000 15.000000 17.000000 14.000000 47.903999 65.491997 7.810500 
736588.725490 2016.000000 9.000000 15.000000 17.000000 24.000000 42.335999 67.639000 7.811900 
736588.732350 2016.000000 9.000000 15.000000 17.000000 34.000000 35.040001 69.791000 7.890400 
736588.759810 2016.000000 9.000000 15.000000 18.000000 14.000000 7.584000 78.458000 7.838900 
736588.766690 2016.000000 9.000000 15.000000 18.000000 24.000000 2.015999 80.637001 7.814900 
736588.773550 2016.000000 9.000000 15.000000 18.000000 33.000000 54.720001 82.814003 7.808900 
736589.362080 2016.000000 9.000000 16.000000 8.000000 41.000000 23.711998 66.779999 7.770300 
736589.380060 2016.000000 9.000000 16.000000 9.000000 7.000000 17.183998 61.212002 7.780100 
736589.397950 2016.000000 9.000000 16.000000 9.000000 33.000000 2.879997 55.762001 7.808000 
736589.416010 2016.000000 9.000000 16.000000 9.000000 59.000000 3.264000 50.396000 7.836600 
736589.433970 2016.000000 9.000000 16.000000 10.000000 24.000000 55.008003 45.247002 7.852000 
736589.451870 2016.000000 9.000000 16.000000 10.000000 50.000000 41.568001 40.381001 7.871000 
736589.469790 2016.000000 9.000000 16.000000 11.000000 16.000000 29.856003 35.895000 7.877100 
736589.506540 2016.000000 9.000000 16.000000 12.000000 9.000000 25.056000 28.672001 7.871600 
736589.540130 2016.000000 9.000000 16.000000 12.000000 57.000000 47.232002 25.962000 7.851700 
736589.634980 2016.000000 9.000000 16.000000 15.000000 14.000000 22.272003 41.133999 7.821800 
736589.648720 2016.000000 9.000000 16.000000 15.000000 34.000000 9.407997 44.881001 7.819200 
736589.655580 2016.000000 9.000000 16.000000 15.000000 44.000000 2.112000 46.814999 7.818800 
736589.662440 2016.000000 9.000000 16.000000 15.000000 53.000000 54.816002 48.785000 7.813900 
736589.669310 2016.000000 9.000000 16.000000 16.000000 3.000000 48.384003 50.785000 7.817800 
736589.676170 2016.000000 9.000000 16.000000 16.000000 13.000000 41.087997 52.811001 7.823200 
736589.683040 2016.000000 9.000000 16.000000 16.000000 23.000000 34.655998 54.863998 7.820800 
736589.689910 2016.000000 9.000000 16.000000 16.000000 33.000000 28.223999 56.935001 7.828800 
736589.696790 2016.000000 9.000000 16.000000 16.000000 43.000000 22.655998 59.029999 7.819100 
736589.703660 2016.000000 9.000000 16.000000 16.000000 53.000000 16.223999 61.133999 7.818900 
736589.710530 2016.000000 9.000000 16.000000 17.000000 3.000000 9.792000 63.255001 7.807000 
736589.717400 2016.000000 9.000000 16.000000 17.000000 13.000000 3.360001 65.385002 7.815900 
736589.724270 2016.000000 9.000000 16.000000 17.000000 22.000000 56.928001 67.528000 7.808800 
736589.744880 2016.000000 9.000000 16.000000 17.000000 52.000000 37.632004 74.000999 7.812100 
736589.758610 2016.000000 9.000000 16.000000 18.000000 12.000000 23.903999 78.338997 7.814900 
736589.765470 2016.000000 9.000000 16.000000 18.000000 22.000000 16.608002 80.513000 7.817100 
736589.772350 2016.000000 9.000000 16.000000 18.000000 32.000000 11.040001 82.693001 7.809400 
736589.779210 2016.000000 9.000000 16.000000 18.000000 42.000000 3.744003 84.870003 7.794500 
736593.370680 2016.000000 9.000000 20.000000 8.000000 53.000000 46.751999 64.594002 7.418900 
736593.377550 2016.000000 9.000000 20.000000 9.000000 3.000000 40.320000 62.487999 7.421300 
736593.384410 2016.000000 9.000000 20.000000 9.000000 13.000000 33.024002 60.396999 7.423000 
736593.391280 2016.000000 9.000000 20.000000 9.000000 23.000000 26.592003 58.319000 7.416200 
736593.398150 2016.000000 9.000000 20.000000 9.000000 33.000000 20.160004 56.263000 7.419300 
736593.405010 2016.000000 9.000000 20.000000 9.000000 43.000000 12.863998 54.229000 7.418600 
736593.411880 2016.000000 9.000000 20.000000 9.000000 53.000000 6.431999 52.219002 7.421700 
736593.418750 2016.000000 9.000000 20.000000 10.000000 3.000000 0.000000 50.233002 7.419700 
736593.432480 2016.000000 9.000000 20.000000 10.000000 22.000000 46.272003 46.368999 7.420100 
736593.439340 2016.000000 9.000000 20.000000 10.000000 32.000000 38.975998 44.494999 7.418600 
736593.446200 2016.000000 9.000000 20.000000 10.000000 42.000000 31.680000 42.668999 7.429500 
736593.459940 2016.000000 9.000000 20.000000 11.000000 2.000000 18.816002 39.179001 7.428600 
736593.466810 2016.000000 9.000000 20.000000 11.000000 12.000000 12.384003 37.535999 7.438700 
736593.473670 2016.000000 9.000000 20.000000 11.000000 22.000000 5.087997 35.972000 7.440800 
736593.480530 2016.000000 9.000000 20.000000 11.000000 31.000000 57.792000 34.498001 7.450600 
736593.487410 2016.000000 9.000000 20.000000 11.000000 41.000000 52.223999 33.124001 7.454800 
736593.494280 2016.000000 9.000000 20.000000 11.000000 51.000000 45.792000 31.865999 7.453700 
736593.514900 2016.000000 9.000000 20.000000 12.000000 21.000000 27.360001 28.938000 7.461200 
736593.521760 2016.000000 9.000000 20.000000 12.000000 31.000000 20.064003 28.292000 7.468100 
736593.535500 2016.000000 9.000000 20.000000 12.000000 51.000000 7.199997 27.570000 7.474200 
736593.544330 2016.000000 9.000000 20.000000 13.000000 3.000000 50.112000 27.528000 7.470800 
736593.577990 2016.000000 9.000000 20.000000 13.000000 52.000000 18.335999 30.309999 7.498400 
736593.692730 2016.000000 9.000000 20.000000 16.000000 37.000000 31.872002 58.930000 7.529800 
736593.699590 2016.000000 9.000000 20.000000 16.000000 47.000000 24.575996 61.011002 7.529600 
736593.706460 2016.000000 9.000000 20.000000 16.000000 57.000000 18.143997 63.108002 7.527300 
736593.713320 2016.000000 9.000000 20.000000 17.000000 7.000000 10.848000 65.219002 7.528900 
736593.720200 2016.000000 9.000000 20.000000 17.000000 17.000000 5.279999 67.347000 7.529400 
736594.411020 2016.000000 9.000000 21.000000 9.000000 51.000000 52.127998 52.625000 7.636700 
736594.428920 2016.000000 9.000000 21.000000 10.000000 17.000000 38.688004 47.533001 7.633400 
736594.446820 2016.000000 9.000000 21.000000 10.000000 43.000000 25.248001 42.710999 7.631300 
736594.464850 2016.000000 9.000000 21.000000 11.000000 9.000000 23.040001 38.231998 7.626300 
736594.482750 2016.000000 9.000000 21.000000 11.000000 35.000000 9.599998 34.313999 7.610700 
736594.503070 2016.000000 9.000000 21.000000 12.000000 4.000000 25.248001 30.768999 7.601300 
736594.536790 2016.000000 9.000000 21.000000 12.000000 52.000000 58.655998 27.926001 7.629600 
736594.608770 2016.000000 9.000000 21.000000 14.000000 36.000000 37.727997 36.428001 7.646400 
736594.615640 2016.000000 9.000000 21.000000 14.000000 46.000000 31.295998 37.990002 7.639700 
736594.643090 2016.000000 9.000000 21.000000 15.000000 26.000000 2.975998 44.933998 7.627100 
736594.649960 2016.000000 9.000000 21.000000 15.000000 35.000000 56.543999 46.806999 7.627600 
736594.656830 2016.000000 9.000000 21.000000 15.000000 45.000000 50.112000 48.719002 7.623900 
736594.663690 2016.000000 9.000000 21.000000 15.000000 55.000000 42.816002 50.666000 7.618500 
736594.670570 2016.000000 9.000000 21.000000 16.000000 5.000000 37.248001 52.648998 7.625800 
736594.677440 2016.000000 9.000000 21.000000 16.000000 15.000000 30.816002 54.660000 7.612400 
736594.684310 2016.000000 9.000000 21.000000 16.000000 25.000000 24.384003 56.692001 7.613200 
736594.691180 2016.000000 9.000000 21.000000 16.000000 35.000000 17.952003 58.750000 7.608800 
736595.389990 2016.000000 9.000000 22.000000 9.000000 21.000000 35.136002 58.987999 7.647000 
736595.396850 2016.000000 9.000000 22.000000 9.000000 31.000000 27.839996 56.939999 7.645000 
736595.403730 2016.000000 9.000000 22.000000 9.000000 41.000000 22.272003 54.910000 7.650100 
736595.410590 2016.000000 9.000000 22.000000 9.000000 51.000000 14.975998 52.909000 7.651000 
736595.417460 2016.000000 9.000000 22.000000 10.000000 1.000000 8.543999 50.932999 7.658000 
736595.431200 2016.000000 9.000000 22.000000 10.000000 20.000000 55.680000 47.084999 7.669300 
736595.438070 2016.000000 9.000000 22.000000 10.000000 30.000000 49.248001 45.222000 7.665800 
736595.444930 2016.000000 9.000000 22.000000 10.000000 40.000000 41.952003 43.407001 7.663200 
736595.451810 2016.000000 9.000000 22.000000 10.000000 50.000000 36.384003 41.641998 7.650900 
736595.465530 2016.000000 9.000000 22.000000 11.000000 10.000000 21.792000 38.311001 7.645600 
736595.472410 2016.000000 9.000000 22.000000 11.000000 20.000000 16.223999 36.756001 7.642900 
736595.479270 2016.000000 9.000000 22.000000 11.000000 30.000000 8.928001 35.292999 7.644800 
736595.486150 2016.000000 9.000000 22.000000 11.000000 40.000000 3.360001 33.929001 7.649900 
736595.493010 2016.000000 9.000000 22.000000 11.000000 49.000000 56.064003 32.682999 7.654800 
736595.503820 2016.000000 9.000000 22.000000 12.000000 5.000000 30.047997 30.983999 7.659300 
736595.537560 2016.000000 9.000000 22.000000 12.000000 54.000000 5.183998 28.299999 7.670000 
736595.626850 2016.000000 9.000000 22.000000 15.000000 2.000000 39.839996 41.048000 7.729600 
736595.633730 2016.000000 9.000000 22.000000 15.000000 12.000000 34.272003 42.792999 7.732100 
736595.640590 2016.000000 9.000000 22.000000 15.000000 22.000000 26.975998 44.591000 7.740300 
736595.647460 2016.000000 9.000000 22.000000 15.000000 32.000000 20.543999 46.442001 7.755500 
736595.654330 2016.000000 9.000000 22.000000 15.000000 42.000000 14.112000 48.333000 7.758900 
736595.661200 2016.000000 9.000000 22.000000 15.000000 52.000000 7.680000 50.264999 7.758800 
736595.668070 2016.000000 9.000000 22.000000 16.000000 2.000000 1.248001 52.228001 7.765900 
736595.674940 2016.000000 9.000000 22.000000 16.000000 11.000000 54.816002 54.223999 7.765500 
736595.681810 2016.000000 9.000000 22.000000 16.000000 21.000000 48.384003 56.243000 7.761200 
736595.716120 2016.000000 9.000000 22.000000 17.000000 11.000000 12.767998 66.636002 7.787700 
736595.723000 2016.000000 9.000000 22.000000 17.000000 21.000000 7.199997 68.763000 7.793000 
736595.729860 2016.000000 9.000000 22.000000 17.000000 30.000000 59.903999 70.897003 7.789600 
736595.736720 2016.000000 9.000000 22.000000 17.000000 40.000000 52.608002 73.040001 7.792300 
736595.743590 2016.000000 9.000000 22.000000 17.000000 50.000000 46.176003 75.191002 7.793500 
736595.750460 2016.000000 9.000000 22.000000 18.000000 0.000000 39.744003 77.352997 7.796000 
736596.465090 2016.000000 9.000000 23.000000 11.000000 9.000000 43.776001 38.653999 7.763000 
736599.328800 2016.000000 9.000000 26.000000 7.000000 53.000000 28.320000 78.346001 7.616200 
736599.335660 2016.000000 9.000000 26.000000 8.000000 3.000000 21.024002 76.195999 7.615700 
736599.342530 2016.000000 9.000000 26.000000 8.000000 13.000000 14.592003 74.051003 7.604100 
736599.349420 2016.000000 9.000000 26.000000 8.000000 23.000000 9.888000 71.911003 7.608200 
736599.356300 2016.000000 9.000000 26.000000 8.000000 33.000000 4.320000 69.785004 7.610800 
736599.363170 2016.000000 9.000000 26.000000 8.000000 42.000000 57.888000 67.670998 7.610400 
736599.370050 2016.000000 9.000000 26.000000 8.000000 52.000000 52.320000 65.570000 7.602100 
736599.376920 2016.000000 9.000000 26.000000 9.000000 2.000000 45.888000 63.485001 7.600500 
736599.383780 2016.000000 9.000000 26.000000 9.000000 12.000000 38.592003 61.419998 7.596700 
736599.390670 2016.000000 9.000000 26.000000 9.000000 22.000000 33.888000 59.368000 7.579800 
736599.397550 2016.000000 9.000000 26.000000 9.000000 32.000000 28.320000 57.341999 7.580600 
736599.404410 2016.000000 9.000000 26.000000 9.000000 42.000000 21.024002 55.344002 7.580300 
736599.411270 2016.000000 9.000000 26.000000 9.000000 52.000000 13.727997 53.373001 7.574400 
736599.418150 2016.000000 9.000000 26.000000 10.000000 2.000000 8.160004 51.430000 7.576200 
736599.425020 2016.000000 9.000000 26.000000 10.000000 12.000000 1.727997 49.522999 7.558500 
736599.441690 2016.000000 9.000000 26.000000 10.000000 36.000000 2.015999 45.076000 7.565900 
736599.468390 2016.000000 9.000000 26.000000 11.000000 14.000000 28.896004 38.659000 7.561000 
736599.508720 2016.000000 9.000000 26.000000 12.000000 12.000000 33.407997 31.684000 7.555200 
736599.557590 2016.000000 9.000000 26.000000 13.000000 22.000000 55.776001 30.483000 7.509600 
736599.696750 2016.000000 9.000000 26.000000 16.000000 43.000000 19.199997 61.859001 7.475900 
736599.703610 2016.000000 9.000000 26.000000 16.000000 53.000000 11.903999 63.928001 7.485600 
736599.710470 2016.000000 9.000000 26.000000 17.000000 3.000000 4.608002 66.014000 7.495700 
736599.717350 2016.000000 9.000000 26.000000 17.000000 12.000000 59.040001 68.119003 7.473400 
736599.744190 2016.000000 9.000000 26.000000 17.000000 51.000000 38.015999 76.447998 7.457700 
736599.751050 2016.000000 9.000000 26.000000 18.000000 1.000000 30.720001 78.599998 7.437300 
736600.319910 2016.000000 9.000000 27.000000 7.000000 40.000000 40.223999 81.253998 7.255700 
736600.337800 2016.000000 9.000000 27.000000 8.000000 6.000000 25.919998 75.647003 7.259300 
736600.355690 2016.000000 9.000000 27.000000 8.000000 32.000000 11.615997 70.098000 7.271000 
736600.373590 2016.000000 9.000000 27.000000 8.000000 57.000000 58.176003 64.632004 7.269200 
736600.391500 2016.000000 9.000000 27.000000 9.000000 23.000000 45.599998 59.273998 7.260200 
736600.409390 2016.000000 9.000000 27.000000 9.000000 49.000000 31.295998 54.081001 7.261900 
736600.427270 2016.000000 9.000000 27.000000 10.000000 15.000000 16.127998 49.098999 7.266600 
736600.445690 2016.000000 9.000000 27.000000 10.000000 41.000000 47.615997 44.269001 7.279900 
736600.491640 2016.000000 9.000000 27.000000 11.000000 47.000000 57.695999 34.428001 7.302200 
736600.641880 2016.000000 9.000000 27.000000 15.000000 24.000000 18.431999 46.571999 7.373800 
736600.648750 2016.000000 9.000000 27.000000 15.000000 34.000000 12.000000 48.397999 7.377600 
736600.655630 2016.000000 9.000000 27.000000 15.000000 44.000000 6.431999 50.269001 7.389500 
736600.662490 2016.000000 9.000000 27.000000 15.000000 53.000000 59.136002 52.175999 7.393000 
736600.669360 2016.000000 9.000000 27.000000 16.000000 3.000000 52.704002 54.120998 7.400200 
736600.676240 2016.000000 9.000000 27.000000 16.000000 13.000000 47.136002 56.098000 7.393600 
736600.683110 2016.000000 9.000000 27.000000 16.000000 23.000000 40.704002 58.101002 7.395200 
736600.689990 2016.000000 9.000000 27.000000 16.000000 33.000000 35.136002 60.130001 7.398000 
736600.718910 2016.000000 9.000000 27.000000 17.000000 15.000000 13.823997 68.874001 7.383200 
736600.725790 2016.000000 9.000000 27.000000 17.000000 25.000000 8.255997 70.991997 7.385600 
736600.732660 2016.000000 9.000000 27.000000 17.000000 35.000000 1.823997 73.122002 7.380600 
736600.739530 2016.000000 9.000000 27.000000 17.000000 44.000000 55.391998 75.258003 7.389100 
736600.746400 2016.000000 9.000000 27.000000 17.000000 54.000000 48.959999 77.405998 7.373400 
736601.398910 2016.000000 9.000000 28.000000 9.000000 34.000000 25.823997 57.262001 7.716200 
736601.405790 2016.000000 9.000000 28.000000 9.000000 44.000000 20.255997 55.278999 7.731200 
736601.412660 2016.000000 9.000000 28.000000 9.000000 54.000000 13.823997 53.326000 7.755100 
736601.419540 2016.000000 9.000000 28.000000 10.000000 4.000000 8.255997 51.405998 7.777800 
736601.426420 2016.000000 9.000000 28.000000 10.000000 14.000000 2.688004 49.521000 7.787300 
736601.433300 2016.000000 9.000000 28.000000 10.000000 23.000000 57.120003 47.681000 7.806400 
736601.440170 2016.000000 9.000000 28.000000 10.000000 33.000000 50.688004 45.889000 7.824900 
736601.447040 2016.000000 9.000000 28.000000 10.000000 43.000000 44.255997 44.153999 7.839700 
736601.453920 2016.000000 9.000000 28.000000 10.000000 53.000000 38.688004 42.473000 7.857400 
736601.460800 2016.000000 9.000000 28.000000 11.000000 3.000000 33.120003 40.863998 7.865900 
736601.474550 2016.000000 9.000000 28.000000 11.000000 23.000000 21.120003 37.886002 7.890600 
736601.481430 2016.000000 9.000000 28.000000 11.000000 33.000000 15.552002 36.535000 7.902700 
736601.488310 2016.000000 9.000000 28.000000 11.000000 43.000000 9.984001 35.294998 7.914000 
736601.495170 2016.000000 9.000000 28.000000 11.000000 53.000000 2.688004 34.175999 7.923500 
736601.502060 2016.000000 9.000000 28.000000 12.000000 2.000000 57.984001 33.187000 7.936500 
736601.508930 2016.000000 9.000000 28.000000 12.000000 12.000000 51.552002 32.344002 7.932100 
736601.515810 2016.000000 9.000000 28.000000 12.000000 22.000000 45.984001 31.657000 7.934300 
736601.522670 2016.000000 9.000000 28.000000 12.000000 32.000000 38.688004 31.139000 7.935500 
736601.529550 2016.000000 9.000000 28.000000 12.000000 42.000000 33.120003 30.794001 7.929500 
736601.536450 2016.000000 9.000000 28.000000 12.000000 52.000000 29.279999 30.629999 7.947300 
736601.543310 2016.000000 9.000000 28.000000 13.000000 2.000000 21.984001 30.652000 7.948000 
736601.550190 2016.000000 9.000000 28.000000 13.000000 12.000000 16.416000 30.857000 7.957400 
736601.557060 2016.000000 9.000000 28.000000 13.000000 22.000000 9.984001 31.242001 7.954700 
736601.563950 2016.000000 9.000000 28.000000 13.000000 32.000000 5.279999 31.802000 7.962700 
736601.606280 2016.000000 9.000000 28.000000 14.000000 33.000000 2.592003 38.438999 8.000900 
736602.448380 2016.000000 9.000000 29.000000 10.000000 45.000000 40.031998 44.048000 8.007000 
736602.455240 2016.000000 9.000000 29.000000 10.000000 55.000000 32.736000 42.396999 8.016600 
736602.462120 2016.000000 9.000000 29.000000 11.000000 5.000000 27.167999 40.813999 8.023500 
736602.468980 2016.000000 9.000000 29.000000 11.000000 15.000000 19.872002 39.313000 8.026700 
736602.475860 2016.000000 9.000000 29.000000 11.000000 25.000000 14.304001 37.898998 8.034000 
736602.482730 2016.000000 9.000000 29.000000 11.000000 35.000000 7.872002 36.583000 8.028100 
736602.496490 2016.000000 9.000000 29.000000 11.000000 54.000000 56.736000 34.294998 8.028100 
736602.503370 2016.000000 9.000000 29.000000 12.000000 4.000000 51.167999 33.348000 8.031800 
736602.510240 2016.000000 9.000000 29.000000 12.000000 14.000000 44.736000 32.548000 8.026500 
736602.563490 2016.000000 9.000000 29.000000 13.000000 31.000000 25.536003 32.157001 7.996800 
736602.594910 2016.000000 9.000000 29.000000 14.000000 16.000000 40.223999 36.573002 7.995300 
736602.680200 2016.000000 9.000000 29.000000 16.000000 19.000000 29.279999 57.840000 7.950400 
736602.693970 2016.000000 9.000000 29.000000 16.000000 39.000000 19.008003 61.889000 7.937100 
736602.730360 2016.000000 9.000000 29.000000 17.000000 31.000000 43.103996 72.946999 7.916800 
736602.737220 2016.000000 9.000000 29.000000 17.000000 41.000000 35.807999 75.074997 7.917300 
736602.744090 2016.000000 9.000000 29.000000 17.000000 51.000000 29.375999 77.211998 7.911600 
736603.411890 2016.000000 9.000000 30.000000 9.000000 53.000000 7.295998 53.898998 7.943100 
736603.430080 2016.000000 9.000000 30.000000 10.000000 19.000000 18.912003 48.937000 7.962500 
736603.463660 2016.000000 9.000000 30.000000 11.000000 7.000000 40.223999 40.726002 7.983300 
736603.498160 2016.000000 9.000000 30.000000 11.000000 57.000000 21.024002 34.376999 7.975900 
736603.531760 2016.000000 9.000000 30.000000 12.000000 45.000000 44.064003 31.483000 7.955800 
736603.573460 2016.000000 9.000000 30.000000 13.000000 45.000000 46.944000 33.631001 7.932100 
